# Reference Number = 2408 Incident Particle: neutron  imodel=1 Target: Z= 90 A= 232 Ef = -5.612
# En(MeV) DWV/w        DWVsym/w       DW>/w         DW</w            w         DWS/wd           wd         DWvso/wso       wso
  0.001  15.89846      14.41933      1.983030     -.5038933     0.5997599E-01  1.542762      2.207074      28.50373     -.3810869E-02
  0.002  15.89563      14.41676      1.982681     -.5038040     0.5999725E-01  1.542462      2.207681      28.49866     -.3812225E-02
  0.003  15.89281      14.41419      1.982332     -.5037147     0.6001853E-01  1.542162      2.208288      28.49358     -.3813582E-02
  0.004  15.88998      14.41162      1.981983     -.5036255     0.6003980E-01  1.541862      2.208895      28.48851     -.3814939E-02
  0.005  15.88716      14.40906      1.981634     -.5035363     0.6006108E-01  1.541562      2.209502      28.48344     -.3816295E-02
  0.006  15.88433      14.40649      1.981285     -.5034471     0.6008237E-01  1.541262      2.210109      28.47837     -.3817653E-02
  0.007  15.88151      14.40393      1.980937     -.5033580     0.6010365E-01  1.540962      2.210716      28.47330     -.3819010E-02
  0.008  15.87869      14.40137      1.980588     -.5032689     0.6012495E-01  1.540662      2.211323      28.46823     -.3820368E-02
  0.009  15.87586      14.39880      1.980240     -.5031798     0.6014624E-01  1.540363      2.211931      28.46317     -.3821726E-02
  0.010  15.87304      14.39624      1.979892     -.5030907     0.6016754E-01  1.540063      2.212538      28.45810     -.3823084E-02
  0.020  15.84490      14.37068      1.976416     -.5022020     0.6038073E-01  1.537073      2.218609      28.40758     -.3836679E-02
  0.030  15.81685      14.34521      1.972954     -.5013165     0.6059429E-01  1.534094      2.224682      28.35723     -.3850298E-02
  0.040  15.78890      14.31983      1.969503     -.5004341     0.6080822E-01  1.531124      2.230755      28.30706     -.3863941E-02
  0.050  15.76105      14.29454      1.966065     -.4995549     0.6102253E-01  1.528165      2.236830      28.25707     -.3877608E-02
  0.060  15.73330      14.26934      1.962639     -.4986787     0.6123720E-01  1.525215      2.242905      28.20725     -.3891299E-02
  0.070  15.70565      14.24423      1.959225     -.4978057     0.6145225E-01  1.522275      2.248982      28.15761     -.3905014E-02
  0.080  15.67810      14.21921      1.955824     -.4969357     0.6166767E-01  1.519344      2.255059      28.10815     -.3918753E-02
  0.090  15.65064      14.19427      1.952434     -.4960689     0.6188346E-01  1.516424      2.261137      28.05885     -.3932517E-02
  0.100  15.62327      14.16942      1.949056     -.4952050     0.6209962E-01  1.513513      2.267215      28.00973     -.3946304E-02
  0.200  15.35483      13.92564      1.915919     -.4867309     0.6428164E-01  1.484923      2.328038      27.52783     -.4085498E-02
  0.300  15.09547      13.69010      1.883910     -.4785449     0.6650075E-01  1.457244      2.388908      27.06223     -.4227095E-02
  0.400  14.84474      13.46240      1.852971     -.4706327     0.6875689E-01  1.430432      2.449796      26.61211     -.4371095E-02
  0.500  14.60222      13.24215      1.823049     -.4629807     0.7105005E-01  1.404443      2.510677      26.17673     -.4517495E-02
  0.600  14.36751      13.02899      1.794097     -.4555765     0.7338016E-01  1.379239      2.571524      25.75536     -.4666297E-02
  0.700  14.14024      12.82258      1.766067     -.4484082     0.7574719E-01  1.354782      2.632313      25.34734     -.4817498E-02
  0.800  13.92007      12.62262      1.738917     -.4414648     0.7815110E-01  1.331038      2.693018      24.95205     -.4971099E-02
  0.900  13.70666      12.42879      1.712606     -.4347360     0.8059185E-01  1.307975      2.753616      24.56889     -.5127098E-02
  1.000  13.49971      12.24082      1.687095     -.4282120     0.8306938E-01  1.285561      2.814085      24.19733     -.5285496E-02
  1.100  13.29893      12.05846      1.662350     -.4218837     0.8558366E-01  1.263767      2.874401      23.83684     -.5446290E-02
  1.200  13.10404      11.88145      1.638337     -.4157424     0.8813464E-01  1.242567      2.934545      23.48693     -.5609481E-02
  1.300  12.91480      11.70956      1.615023     -.4097800     0.9072227E-01  1.221936      2.994495      23.14714     -.5775068E-02
  1.400  12.73096      11.54258      1.592379     -.4039889     0.9334652E-01  1.201848      3.054231      22.81705     -.5943049E-02
  1.500  12.55230      11.38028      1.570376     -.3983619     0.9600732E-01  1.182281      3.113735      22.49624     -.6113425E-02
  1.600  12.37859      11.22249      1.548989     -.3928921     0.9870464E-01  1.163214      3.172987      22.18432     -.6286194E-02
  1.700  12.20964      11.06902      1.528191     -.3875730     0.1014384      1.144627      3.231971      21.88094     -.6461355E-02
  1.800  12.04525      10.91969      1.507958     -.3823987     0.1042086      1.126500      3.290670      21.58574     -.6638908E-02
  1.900  11.88524      10.77433      1.488269     -.3773632     0.1070152      1.108815      3.349067      21.29840     -.6818852E-02
  2.000  11.72943      10.63279      1.469102     -.3724611     0.1098581      1.091554      3.407146      21.01861     -.7001186E-02
  2.100  11.57767      10.49492      1.450436     -.3676873     0.1127372      1.074702      3.464894      20.74608     -.7185909E-02
  2.200  11.42980      10.36059      1.432253     -.3630368     0.1156526      1.058243      3.522296      20.48052     -.7373020E-02
  2.300  11.28567      10.22964      1.414533     -.3585049     0.1186041      1.042162      3.579338      20.22168     -.7562518E-02
  2.400  11.14514      10.10197      1.397260     -.3540872     0.1215917      1.026445      3.636008      19.96930     -.7754404E-02
  2.500  11.00808      9.977442      1.380417     -.3497794     0.1246154      1.011079      3.692294      19.72314     -.7948674E-02
  2.600  10.87436      9.855948      1.363988     -.3455776     0.1276751     0.9960512      3.748183      19.48297     -.8145330E-02
  2.700  10.74386      9.737378      1.347959     -.3414780     0.1307708     0.9813493      3.803666      19.24858     -.8344369E-02
  2.800  10.61646      9.621626      1.332315     -.3374768     0.1339023     0.9669620      3.858732      19.01977     -.8545792E-02
  2.900  10.49207      9.508594      1.317042     -.3335706     0.1370697     0.9528783      3.913370      18.79633     -.8749596E-02
  3.000  10.37056      9.398187      1.302128     -.3297561     0.1402728     0.9390877      3.967573      18.57808     -.8955781E-02
  3.100  10.25184      9.290315      1.287561     -.3260302     0.1435117     0.9255803      4.021331      18.36484     -.9164347E-02
  3.200  10.13583      9.184890      1.273327     -.3223898     0.1467863     0.9123466      4.074637      18.15644     -.9375291E-02
  3.300  10.02242      9.081832      1.259417     -.3188320     0.1500964     0.8993775      4.127483      17.95272     -.9588614E-02
  3.400  9.911526      8.981060      1.245820     -.3153541     0.1534421     0.8866642      4.179861      17.75352     -.9804314E-02
  3.500  9.803072      8.882501      1.232525     -.3119535     0.1568233     0.8741985      4.231765      17.55869     -.1002239E-01
  3.600  9.696975      8.786081      1.219522     -.3086277     0.1602400     0.8619724      4.283190      17.36809     -.1024284E-01
  3.700  9.593159      8.691732      1.206802     -.3053742     0.1636920     0.8499782      4.334130      17.18158     -.1046567E-01
  3.800  9.491552      8.599387      1.194356     -.3021907     0.1671793     0.8382088      4.384579      16.99904     -.1069086E-01
  3.900  9.392084      8.508985      1.182175     -.2990750     0.1707019     0.8266570      4.434534      16.82033     -.1091843E-01
  4.000  9.294689      8.420463      1.170251     -.2960251     0.1742597     0.8153163      4.483989      16.64534     -.1114837E-01
  4.200  9.105860      8.248832      1.147143     -.2901143     0.1814805     0.7932423      4.581387      16.30607     -.1161537E-01
  4.400  8.924586      8.084058      1.124971     -.2844430     0.1888413     0.7719386      4.676748      15.98035     -.1209183E-01
  4.600  8.750423      7.925738      1.103682     -.2789972     0.1963417     0.7513605      4.770051      15.66738     -.1257775E-01
  4.800  8.582960      7.773500      1.083223     -.2737639     0.2039809     0.7314669      4.861283      15.36644     -.1307313E-01
  5.000  8.421818      7.627001      1.063549     -.2687310     0.2117586     0.7122196      4.950433      15.07685     -.1357795E-01
  5.200  8.266648      7.485921      1.044615     -.2638874     0.2196742     0.6935833      5.037499      14.79797     -.1409220E-01
  5.400  8.117123      7.349965      1.026381     -.2592229     0.2277271     0.6755254      5.122479      14.52921     -.1461589E-01
  5.600  7.972942      7.218860      1.008810     -.2547277     0.2359168     0.6580153      5.205378      14.27005     -.1514898E-01
  5.800  7.833823      7.092350     0.9918665     -.2503931     0.2442427     0.6410249      5.286203      14.01996     -.1569148E-01
  6.000  7.699505      6.970197     0.9755185     -.2462107     0.2527043     0.6245276      5.364966      13.77850     -.1624338E-01
  6.200  7.569745      6.852182     0.9597358     -.2421728     0.2613008     0.6084989      5.441678      13.54521     -.1680466E-01
  6.400  7.444313      6.738096     0.9444900     -.2382722     0.2700319     0.5929158      5.516359      13.31968     -.1737532E-01
  6.600  7.322999      6.627746     0.9297548     -.2345021     0.2788967     0.5777569      5.589026      13.10155     -.1795534E-01
  6.800  7.205602      6.520953     0.9155054     -.2308562     0.2878949     0.5630021      5.659701      12.89044     -.1854471E-01
  7.000  7.091937      6.417547     0.9017189     -.2273286     0.2970256     0.5486324      5.728407      12.68603     -.1914343E-01
  7.200  6.981829      6.317369     0.8883734     -.2239137     0.3062884     0.5346303      5.795169      12.48800     -.1975148E-01
  7.400  6.875113      6.220271     0.8754487     -.2206065     0.3156826     0.5209791      5.860014      12.29606     -.2036885E-01
  7.600  6.771636      6.126112     0.8629257     -.2174019     0.3252075     0.5076632      5.922968      12.10993     -.2099553E-01
  7.800  6.671252      6.034761     0.8507863     -.2142953     0.3348625     0.4946679      5.984063      11.92935     -.2163151E-01
  8.000  6.573826      5.946095     0.8390138     -.2112826     0.3446469     0.4819795      6.043326      11.75408     -.2227677E-01
  8.200  6.479229      5.859996     0.8275921     -.2083595     0.3545602     0.4695848      6.100790      11.58388     -.2293131E-01
  8.400  6.387340      5.776356     0.8165062     -.2055223     0.3646015     0.4574716      6.156484      11.41854     -.2359511E-01
  8.600  6.298044      5.695069     0.8057420     -.2027672     0.3747703     0.4456283      6.210443      11.25786     -.2426816E-01
  8.800  6.211233      5.616038     0.7952861     -.2000910     0.3850659     0.4340439      6.262697      11.10163     -.2495045E-01
  9.000  6.126807      5.539171     0.7851257     -.1974904     0.3954875     0.4227080      6.313279      10.94968     -.2564196E-01
  9.200  6.044667      5.464380     0.7752490     -.1949622     0.4060345     0.4116108      6.362224      10.80184     -.2634269E-01
  9.400  5.964722      5.391581     0.7656447     -.1925036     0.4167062     0.4007430      6.409562      10.65793     -.2705262E-01
  9.600  5.886887      5.320697     0.7563019     -.1901119     0.4275019     0.3900958      6.455329      10.51781     -.2777173E-01
  9.800  5.811078      5.251652     0.7472104     -.1877844     0.4384208     0.3796607      6.499557      10.38132     -.2850002E-01
 10.000  5.737218      5.184376     0.7383607     -.1855187     0.4494623     0.3694298      6.542278      10.24833     -.2923746E-01
 10.500  5.560619      5.023493     0.7172349     -.1801096     0.4775974     0.3446976      6.642707      9.930306     -.3112107E-01
 11.000  5.394689      4.872295     0.6974326     -.1750387     0.5064824     0.3210875      6.734435      9.631422     -.3306163E-01
 11.500  5.238494      4.729933     0.6788376     -.1702763     0.5361055     0.2985035      6.817954      9.350003     -.3505893E-01
 12.000  5.091205      4.595654     0.6613473     -.1657961     0.5664549     0.2768608      6.893743      9.084564     -.3711273E-01
 12.500  4.952083      4.468788     0.6448701     -.1615748     0.5975184     0.2560836      6.962262      8.833779     -.3922280E-01
 13.000  4.820472      4.348739     0.6293245     -.1575915     0.6292837     0.2361039      7.023950      8.596469     -.4138892E-01
 13.500  4.695780      4.234971     0.6146372     -.1538274     0.6617384     0.2168611      7.079227      8.371575     -.4361082E-01
 14.000  4.577480      4.127003     0.6007428     -.1502659     0.6948697     0.1983004      7.128491      8.158148     -.4588827E-01
 14.500  4.465095      4.024404     0.5875821     -.1468917     0.7286650     0.1803724      7.172119      7.955333     -.4822101E-01
 15.000  4.358193      3.926783     0.5751018     -.1436913     0.7631113     0.1630326      7.210468      7.762358     -.5060877E-01
 15.500  4.256386      3.833785     0.5632534     -.1406523     0.7981954     0.1462403      7.243874      7.578523     -.5305130E-01
 16.000  4.159321      3.745091     0.5519932     -.1377634     0.8339043     0.1299587      7.272654      7.403194     -.5554831E-01
 16.500  4.066674      3.660407     0.5412813     -.1350145     0.8702245     0.1141543      7.297103      7.235794     -.5809952E-01
 17.000  3.978154      3.579469     0.5310814     -.1323963     0.9071429     0.9879628E-01  7.317503      7.075797     -.6070467E-01
 17.500  3.893492      3.502033     0.5213601     -.1299002     0.9446457     0.8385666E-01  7.334115      6.922723     -.6336346E-01
 18.000  3.812444      3.427876     0.5120872     -.1275186     0.9827196     0.6930964E-01  7.347183      6.776132     -.6607560E-01
 18.500  3.734785      3.356794     0.5032348     -.1252442      1.021351     0.5513155E-01  7.356939      6.635620     -.6884078E-01
 19.000  3.660307      3.288601     0.4947772     -.1230706      1.060526     0.4130056E-01  7.363597      6.500817     -.7165871E-01
 19.500  3.588822      3.223123     0.4866910     -.1209917      1.100231     0.2779655E-01  7.367360      6.371382     -.7452908E-01
 20.000  3.520154      3.160201     0.4789543     -.1190020      1.140452     0.1460095E-01  7.368415      6.247000     -.7745157E-01
 20.500  3.454140      3.099690     0.4715470     -.1170963      1.181176     0.1696527E-02  7.366940      6.127382     -.8042586E-01
 21.000  3.390633      3.041452     0.4644508     -.1152698      1.222388     -.1093267E-01  7.363100      6.012259     -.8345164E-01
 21.500  3.329492      2.985362     0.4576483     -.1135183      1.264075     -.2330145E-01  7.357048      5.901382     -.8652858E-01
 22.000  3.270589      2.931303     0.4511236     -.1118375      1.306224     -.3542360E-01  7.348929      5.794521     -.8965635E-01
 22.500  3.213806      2.879168     0.4448619     -.1102238      1.348819     -.4731195E-01  7.338880      5.691460     -.9283460E-01
 23.000  3.159030      2.828854     0.4388495     -.1086735      1.391849     -.5897847E-01  7.327026      5.592002     -.9606300E-01
 23.500  3.106159      2.780269     0.4330734     -.1071835      1.435298     -.7043433E-01  7.313485      5.495960     -.9934121E-01
 24.000  3.055096      2.733324     0.4275218     -.1057507      1.479153     -.8168998E-01  7.298370      5.403162     -.1026689    
 24.500  3.005750      2.687939     0.4221835     -.1043721      1.523401     -.9275520E-01  7.281782      5.313445     -.1060456    
 25.000  2.958039      2.644036     0.4170481     -.1030452      1.568029     -.1036392      7.263821      5.226659     -.1094712    
 25.500  2.911882      2.601544     0.4121057     -.1017675      1.613021     -.1143504      7.244576      5.142662     -.1129451    
 26.000  2.867207      2.560396     0.4073473     -.1005365      1.658366     -.1248972      7.224134      5.061322     -.1164670    
 26.500  2.823944      2.520530     0.4027642     -.9935014E-01  1.704050     -.1352869      7.202574      4.982516     -.1200366    
 27.000  2.782028      2.481886     0.3983484     -.9820633E-01  1.750059     -.1455268      7.179972      4.906126     -.1236534    
 27.500  2.741399      2.444409     0.3940924     -.9710314E-01  1.796380     -.1556236      7.156397      4.832042     -.1273172    
 28.000  2.701998      2.408048     0.3899890     -.9603874E-01  1.843001     -.1655837      7.131916      4.760163     -.1310275    
 28.500  2.663772      2.372752     0.3860315     -.9501142E-01  1.889908     -.1754131      7.106590      4.690391     -.1347840    
 29.000  2.626670      2.338476     0.3822136     -.9401958E-01  1.937089     -.1851174      7.080479      4.622635     -.1385862    
 29.500  2.590643      2.305176     0.3785294     -.9306168E-01  1.984531     -.1947021      7.053637      4.556809     -.1424337    
 30.000  2.555648      2.272811     0.3749733     -.9213629E-01  2.032221     -.2041722      7.026114      4.492831     -.1463263    
 31.000  2.488579      2.210733     0.3682242     -.9037770E-01  2.128296     -.2227876      6.969219      4.370117     -.1542448    
 32.000  2.425150      2.151956     0.3619273     -.8873380E-01  2.225216     -.2409995      6.910147      4.253928     -.1623385    
